time [s],voltage [V],current [...],temperature_A [K],temperature_B [K],setpoint [K]
0.0,+1.29690900E+0,+0.612030E-03,298.62,249.16,295.0
0.628105878829956,+1.29837100E+0,+0.612717E-03,298.52,249.19,295.0
1.2475996017456055,+1.29978500E+0,+0.613372E-03,298.41,249.23,295.0
1.8758957386016846,+1.30122100E+0,+0.614040E-03,298.29,249.26,295.0
2.50728440284729,+1.30257100E+0,+0.614674E-03,298.17,249.3,295.0
3.1268999576568604,+1.30389100E+0,+0.615282E-03,298.06,249.32,295.0
3.7474560737609863,+1.30518800E+0,+0.615897E-03,297.94,249.35,295.0
4.3745503425598145,+1.30648800E+0,+0.616506E-03,297.8,249.39,295.0
5.00710129737854,+1.30772100E+0,+0.617082E-03,297.68,249.41,295.0
5.627956390380859,+1.30891900E+0,+0.617658E-03,297.56,249.44,295.0
6.24766731262207,+1.31010500E+0,+0.618197E-03,297.43,249.46,295.0
6.875549793243408,+1.31128900E+0,+0.618752E-03,297.28,249.49,295.0
7.5073113441467285,+1.31240800E+0,+0.619278E-03,297.16,249.52,295.0
8.12699031829834,+1.31351000E+0,+0.619781E-03,297.03,249.54,295.0
8.747934341430664,+1.31458600E+0,+0.620293E-03,296.9,249.56,295.0
9.375125169754028,+1.31566200E+0,+0.620798E-03,296.75,249.58,295.0
10.006745338439941,+1.31668600E+0,+0.621278E-03,296.62,249.6,295.0
10.626824617385864,+1.31768300E+0,+0.621757E-03,296.49,249.62,295.0
11.247504949569702,+1.31866900E+0,+0.622203E-03,296.37,249.64,295.0
11.875661134719849,+1.31964300E+0,+0.622664E-03,296.22,249.67,295.0
12.506876945495605,+1.32058300E+0,+0.623099E-03,296.1,249.69,295.0
13.125979900360107,+1.32149000E+0,+0.623510E-03,295.98,249.7,295.0
13.746880531311035,+1.32236200E+0,+0.623929E-03,295.86,249.72,295.0
14.375110149383545,+1.32323800E+0,+0.624337E-03,295.72,249.74,295.0
15.006633281707764,+1.32405800E+0,+0.624721E-03,295.61,249.76,295.0
15.627436399459839,+1.32485100E+0,+0.625101E-03,295.5,249.78,295.0
16.246946334838867,+1.32562500E+0,+0.625447E-03,295.39,249.79,295.0
16.87560796737671,+1.32638700E+0,+0.625803E-03,295.27,249.81,295.0
17.50706458091736,+1.32709100E+0,+0.626131E-03,295.17,249.83,295.0
18.127041578292847,+1.32776800E+0,+0.626436E-03,295.07,249.85,295.0
18.7463481426239,+1.32842500E+0,+0.626750E-03,294.98,249.87,295.0
19.374645471572876,+1.32907100E+0,+0.627048E-03,294.88,249.89,295.0
20.005922555923462,+1.32967300E+0,+0.627329E-03,294.8,249.91,295.0
20.626970291137695,+1.33023700E+0,+0.627604E-03,294.72,249.92,295.0
21.246237993240356,+1.33079200E+0,+0.627849E-03,294.65,249.94,295.0
21.8766131401062,+1.33133300E+0,+0.628099E-03,294.57,249.96,295.0
22.50690460205078,+1.33182800E+0,+0.628333E-03,294.51,249.98,295.0
23.126549243927002,+1.33231300E+0,+0.628545E-03,294.45,250.0,295.0
23.745929479599,+1.33276400E+0,+0.628766E-03,294.4,250.02,295.0
24.374851942062378,+1.33321800E+0,+0.628974E-03,294.35,250.04,295.0
25.006922960281372,+1.33363400E+0,+0.629169E-03,294.32,250.06,295.0
25.626660108566284,+1.33403500E+0,+0.629365E-03,294.28,250.08,295.0
26.246436595916748,+1.33441300E+0,+0.629532E-03,294.26,250.1,295.0
26.875664949417114,+1.33479400E+0,+0.629709E-03,294.23,250.13,295.0
27.506579637527466,+1.33514300E+0,+0.629871E-03,294.22,250.15,295.0
28.126479625701904,+1.33548000E+0,+0.630018E-03,294.21,250.17,295.0
28.746513843536377,+1.33580900E+0,+0.630183E-03,294.21,250.2,295.0
29.386619567871094,+1.33612900E+0,+0.630328E-03,294.22,250.22,295.0
30.0059974193573,+1.33642200E+0,+0.630466E-03,294.23,250.25,295.0
30.62668228149414,+1.33670700E+0,+0.630610E-03,294.24,250.27,295.0
31.246604204177856,+1.33698100E+0,+0.630729E-03,294.27,250.3,295.0
31.875687837600708,+1.33725700E+0,+0.630856E-03,294.3,250.33,295.0
32.50587010383606,+1.33751000E+0,+0.630973E-03,294.33,250.35,295.0
33.12582325935364,+1.33776000E+0,+0.631078E-03,294.37,250.38,295.0
33.746230125427246,+1.33799000E+0,+0.631198E-03,294.41,250.41,295.0
34.37483596801758,+1.33823700E+0,+0.631309E-03,294.46,250.44,295.0
35.00608253479004,+1.33845800E+0,+0.631412E-03,294.51,250.47,295.0
35.625611782073975,+1.33867300E+0,+0.631523E-03,294.57,250.49,295.0
36.2458610534668,+1.33888000E+0,+0.631613E-03,294.62,250.52,295.0
36.87590289115906,+1.33908900E+0,+0.631711E-03,294.7,250.56,295.0
37.50578784942627,+1.33928700E+0,+0.631803E-03,294.76,250.59,295.0
38.12543487548828,+1.33948200E+0,+0.631884E-03,294.83,250.62,295.0
38.74626040458679,+1.33967100E+0,+0.631982E-03,294.9,250.65,295.0
39.37495541572571,+1.33985700E+0,+0.632072E-03,294.99,250.69,295.0
40.00582480430603,+1.34004000E+0,+0.632156E-03,295.07,250.72,295.0
40.62548542022705,+1.34022300E+0,+0.632247E-03,295.15,250.75,295.0
41.24497175216675,+1.34039500E+0,+0.632321E-03,295.23,250.78,295.0
41.875765323638916,+1.34056600E+0,+0.632400E-03,295.32,250.82,295.0
42.50601291656494,+1.34073200E+0,+0.632479E-03,295.41,250.86,295.0
43.12586236000061,+1.34089800E+0,+0.632552E-03,295.49,250.89,295.0
43.746214389801025,+1.34106300E+0,+0.632629E-03,295.58,250.93,295.0
44.37463903427124,+1.34122900E+0,+0.632711E-03,295.68,250.97,295.0
45.00603938102722,+1.34137800E+0,+0.632784E-03,295.77,251.0,295.0
45.62663674354553,+1.34153700E+0,+0.632858E-03,295.85,251.04,295.0
46.24638485908508,+1.34169700E+0,+0.632938E-03,295.94,251.07,295.0
46.87551188468933,+1.34184900E+0,+0.633002E-03,296.04,251.11,295.0
47.50638771057129,+1.34199700E+0,+0.633074E-03,296.12,251.15,295.0
48.12706637382507,+1.34214200E+0,+0.633134E-03,296.2,251.18,295.0
48.775004386901855,+1.34229900E+0,+0.633216E-03,296.3,251.23,295.0
49.406574726104736,+1.34244800E+0,+0.633283E-03,296.38,251.26,295.0
50.027008056640625,+1.34258400E+0,+0.633352E-03,296.45,251.3,295.0
50.64706373214722,+1.34272700E+0,+0.633428E-03,296.53,251.33,295.0
51.274876832962036,+1.34287800E+0,+0.633486E-03,296.61,251.37,295.0
51.90724802017212,+1.34301200E+0,+0.633552E-03,296.68,251.41,295.0
52.52631211280823,+1.34314900E+0,+0.633616E-03,296.75,251.44,295.0
53.14760899543762,+1.34328800E+0,+0.633668E-03,296.81,251.48,295.0
53.77591347694397,+1.34342200E+0,+0.633744E-03,296.88,251.52,295.0
54.40657687187195,+1.34355600E+0,+0.633805E-03,296.94,251.55,295.0
55.02747702598572,+1.34368600E+0,+0.633866E-03,296.99,251.59,295.0
55.647464752197266,+1.34380900E+0,+0.633935E-03,297.04,251.62,295.0
56.27743434906006,+1.34394200E+0,+0.633986E-03,297.09,251.66,295.0
56.906877279281616,+1.34405900E+0,+0.634043E-03,297.13,251.69,295.0
57.52728462219238,+1.34418400E+0,+0.634100E-03,297.17,251.72,295.0
58.14795160293579,+1.34430000E+0,+0.634147E-03,297.21,251.75,295.0
58.778329610824585,+1.34441900E+0,+0.634212E-03,297.24,251.79,295.0
59.38672423362732,+1.34453000E+0,+0.634267E-03,297.27,251.82,295.0
60.00717616081238,+1.34465200E+0,+0.634319E-03,297.29,251.85,295.0
60.627269983291626,+1.34475700E+0,+0.634370E-03,297.31,251.88,295.0
61.24714541435242,+1.34487300E+0,+0.634435E-03,297.32,251.91,295.0
61.87606072425842,+1.34498600E+0,+0.634476E-03,297.33,251.94,295.0
62.507816791534424,+1.34509700E+0,+0.634528E-03,297.33,251.97,295.0
63.12692880630493,+1.34519300E+0,+0.634577E-03,297.34,252.0,295.0
63.7474045753479,+1.34529800E+0,+0.634615E-03,297.33,252.02,295.0
64.37501335144043,+1.34541100E+0,+0.634676E-03,297.33,252.05,295.0
65.00744724273682,+1.34551300E+0,+0.634725E-03,297.32,252.08,295.0
65.62737607955933,+1.34562000E+0,+0.634772E-03,297.3,252.1,295.0
66.24815917015076,+1.34571000E+0,+0.634829E-03,297.28,252.13,295.0
66.87565970420837,+1.34581800E+0,+0.634866E-03,297.26,252.16,295.0
67.50822305679321,+1.34590800E+0,+0.634911E-03,297.23,252.18,295.0
68.12694382667542,+1.34600700E+0,+0.634956E-03,297.2,252.2,295.0
68.74755620956421,+1.34610300E+0,+0.634990E-03,297.17,252.22,295.0
69.37512350082397,+1.34619600E+0,+0.635046E-03,297.13,252.25,295.0
70.00728464126587,+1.34628000E+0,+0.635087E-03,297.09,252.27,295.0
70.6271641254425,+1.34637600E+0,+0.635130E-03,297.05,252.29,295.0
71.24784183502197,+1.34646100E+0,+0.635182E-03,297.01,252.31,295.0
71.87582206726074,+1.34656000E+0,+0.635214E-03,296.96,252.33,295.0
72.50761651992798,+1.34663800E+0,+0.635254E-03,296.91,252.35,295.0
73.12769556045532,+1.34672200E+0,+0.635293E-03,296.86,252.37,295.0
73.74849319458008,+1.34680700E+0,+0.635323E-03,296.81,252.38,295.0
74.37463736534119,+1.34688800E+0,+0.635372E-03,296.75,252.4,295.0
75.00710940361023,+1.34697300E+0,+0.635411E-03,296.69,252.42,295.0
75.62767291069031,+1.34705100E+0,+0.635447E-03,296.63,252.43,295.0
76.24744462966919,+1.34713000E+0,+0.635496E-03,296.58,252.45,295.0
76.87551784515381,+1.34720800E+0,+0.635524E-03,296.51,252.46,295.0
77.50742697715759,+1.34728700E+0,+0.635560E-03,296.45,252.48,295.0
78.1278395652771,+1.34735900E+0,+0.635595E-03,296.38,252.49,295.0
78.74785614013672,+1.34743800E+0,+0.635619E-03,296.32,252.51,295.0
79.37508273124695,+1.34751900E+0,+0.635664E-03,296.25,252.52,295.0
80.00773811340332,+1.34758300E+0,+0.635698E-03,296.19,252.53,295.0
80.62870359420776,+1.34766200E+0,+0.635732E-03,296.13,252.55,295.0
81.24676251411438,+1.34772600E+0,+0.635774E-03,296.06,252.56,295.0
81.87584090232849,+1.34779800E+0,+0.635798E-03,295.99,252.57,295.0
82.5072500705719,+1.34787100E+0,+0.635830E-03,295.93,252.59,295.0
83.12916564941406,+1.34793500E+0,+0.635862E-03,295.87,252.6,295.0
83.74792718887329,+1.34799600E+0,+0.635882E-03,295.81,252.61,295.0
84.37506294250488,+1.34806300E+0,+0.635923E-03,295.74,252.62,295.0
85.01277613639832,+1.34813600E+0,+0.635955E-03,295.68,252.63,295.0
85.64805197715759,+1.34819700E+0,+0.635995E-03,295.62,252.64,295.0
86.27583026885986,+1.34826400E+0,+0.636015E-03,295.55,252.66,295.0
86.92675018310547,+1.34832200E+0,+0.636045E-03,295.5,252.67,295.0
87.54741144180298,+1.34838300E+0,+0.636063E-03,295.45,252.68,295.0
88.17442631721497,+1.34844100E+0,+0.636103E-03,295.39,252.69,295.0
88.80789303779602,+1.34850200E+0,+0.636131E-03,295.34,252.71,295.0
89.4267303943634,+1.34855700E+0,+0.636157E-03,295.29,252.72,295.0
90.0473861694336,+1.34861600E+0,+0.636193E-03,295.25,252.73,295.0
90.67687654495239,+1.34867700E+0,+0.636212E-03,295.2,252.75,295.0
91.30737209320068,+1.34873200E+0,+0.636238E-03,295.16,252.76,295.0
91.92730402946472,+1.34878400E+0,+0.636264E-03,295.12,252.77,295.0
92.54676914215088,+1.34884500E+0,+0.636282E-03,295.08,252.79,295.0
93.17490148544312,+1.34889800E+0,+0.636316E-03,295.04,252.8,295.0
93.80726051330566,+1.34895300E+0,+0.636341E-03,295.01,252.82,295.0
94.426344871521,+1.34900500E+0,+0.636366E-03,294.99,252.83,295.0
95.04689407348633,+1.34905500E+0,+0.636393E-03,294.96,252.85,295.0
95.67579770088196,+1.34911900E+0,+0.636416E-03,294.94,252.87,295.0
96.30607223510742,+1.34915900E+0,+0.636440E-03,294.92,252.88,295.0
96.92671465873718,+1.34922600E+0,+0.636465E-03,294.9,252.9,295.0
97.54699373245239,+1.34927300E+0,+0.636489E-03,294.89,252.92,295.0
98.17299199104309,+1.34931600E+0,+0.636514E-03,294.88,252.94,295.0
98.8055534362793,+1.34937500E+0,+0.636538E-03,294.87,252.95,295.0
99.42537903785706,+1.34941800E+0,+0.636560E-03,294.86,252.97,295.0
100.04591703414917,+1.34947000E+0,+0.636583E-03,294.86,252.99,295.0
100.67417359352112,+1.34952300E+0,+0.636607E-03,294.86,253.01,295.0
101.30514359474182,+1.34956600E+0,+0.636629E-03,294.87,253.03,295.0
101.92471432685852,+1.34961600E+0,+0.636651E-03,294.87,253.05,295.0
102.54571843147278,+1.34965900E+0,+0.636674E-03,294.88,253.07,295.0
103.16461992263794,+1.34970000E+0,+0.636687E-03,294.9,253.09,295.0
103.78389477729797,+1.34975300E+0,+0.636718E-03,294.91,253.11,295.0
104.40423369407654,+1.34980200E+0,+0.636741E-03,294.93,253.13,295.0
105.02436828613281,+1.34984000E+0,+0.636760E-03,294.95,253.15,295.0
105.64381980895996,+1.34989200E+0,+0.636782E-03,294.97,253.17,295.0
106.26325416564941,+1.34993300E+0,+0.636806E-03,295.0,253.19,295.0
106.90391993522644,+1.34997900E+0,+0.636827E-03,295.02,253.22,295.0
107.52289533615112,+1.35002300E+0,+0.636848E-03,295.05,253.24,295.0
108.14304518699646,+1.35007200E+0,+0.636868E-03,295.08,253.26,295.0
108.76289582252502,+1.35011300E+0,+0.636878E-03,295.12,253.29,295.0
109.38490271568298,+1.35016300E+0,+0.636908E-03,295.15,253.31,295.0
110.00269412994385,+1.35020900E+0,+0.636929E-03,295.18,253.34,295.0
110.62209439277649,+1.35024700E+0,+0.636951E-03,295.22,253.36,295.0
111.24232053756714,+1.35029100E+0,+0.636971E-03,295.26,253.38,295.0
111.86216139793396,+1.35033100E+0,+0.637001E-03,295.3,253.41,295.0
112.48537278175354,+1.35037200E+0,+0.637009E-03,295.34,253.44,295.0
113.10143733024597,+1.35041800E+0,+0.637029E-03,295.38,253.46,295.0
113.72203469276428,+1.35045900E+0,+0.637049E-03,295.42,253.49,295.0
114.34110593795776,+1.35050000E+0,+0.637070E-03,295.46,253.51,295.0
114.96152377128601,+1.35053800E+0,+0.637078E-03,295.51,253.55,295.0
115.58487915992737,+1.35058400E+0,+0.637107E-03,295.55,253.57,295.0
116.19999718666077,+1.35062200E+0,+0.637126E-03,295.59,253.6,295.0
116.82160496711731,+1.35066300E+0,+0.637145E-03,295.63,253.63,295.0
117.4406886100769,+1.35071200E+0,+0.637164E-03,295.68,253.65,295.0
118.0600106716156,+1.35075000E+0,+0.637194E-03,295.72,253.68,295.0
118.68521499633789,+1.35078800E+0,+0.637204E-03,295.76,253.71,295.0
119.31912159919739,+1.35082600E+0,+0.637224E-03,295.8,253.74,295.0
119.93933820724487,+1.35087500E+0,+0.637242E-03,295.85,253.77,295.0
120.59781432151794,+1.35090700E+0,+0.637262E-03,295.89,253.8,295.0
121.23872637748718,+1.35095100E+0,+0.637289E-03,295.93,253.83,295.0
121.8861632347107,+1.35098800E+0,+0.637301E-03,295.97,253.86,295.0
122.51853442192078,+1.35103200E+0,+0.637320E-03,296.0,253.89,295.0
123.15782403945923,+1.35107300E+0,+0.637331E-03,296.04,253.92,295.0
123.79788017272949,+1.35111600E+0,+0.637359E-03,296.07,253.95,295.0
124.4381194114685,+1.35115400E+0,+0.637378E-03,296.11,253.98,295.0
125.08609962463379,+1.35119500E+0,+0.637396E-03,296.14,254.01,295.0
125.71784687042236,+1.35123000E+0,+0.637415E-03,296.17,254.04,295.0
126.35719084739685,+1.35127600E+0,+0.637423E-03,296.2,254.07,295.0
126.99706101417542,+1.35130800E+0,+0.637452E-03,296.22,254.1,295.0
127.63712048530579,+1.35135200E+0,+0.637470E-03,296.25,254.12,295.0
128.25697994232178,+1.35144500E+0,+0.637512E-03,296.29,254.19,295.0
129.73680520057678,+1.35147700E+0,+0.637531E-03,296.31,254.22,295.0
130.35598850250244,+1.35151800E+0,+0.637549E-03,296.33,254.25,295.0
130.9847617149353,+1.35155800E+0,+0.637566E-03,296.34,254.27,295.0
131.6167025566101,+1.35159300E+0,+0.637583E-03,296.35,254.3,295.0
132.2563226222992,+1.35163100E+0,+0.637612E-03,296.36,254.33,295.0
132.8963725566864,+1.35166600E+0,+0.637619E-03,296.36,254.35,295.0
133.53589344024658,+1.35170400E+0,+0.637638E-03,296.37,254.38,295.0
134.18389511108398,+1.35174500E+0,+0.637655E-03,296.37,254.41,295.0
134.81673955917358,+1.35178200E+0,+0.637672E-03,296.37,254.43,295.0
135.45670223236084,+1.35182000E+0,+0.637699E-03,296.37,254.46,295.0
136.0962016582489,+1.35185500E+0,+0.637706E-03,296.36,254.48,295.0
136.73589444160461,+1.35188700E+0,+0.637726E-03,296.36,254.51,295.0
137.38273882865906,+1.35192800E+0,+0.637741E-03,296.35,254.53,295.0
138.0156066417694,+1.35196800E+0,+0.637760E-03,296.34,254.55,295.0
138.65637016296387,+1.35200000E+0,+0.637775E-03,296.33,254.58,295.0
139.285489320755,+1.35203200E+0,+0.637793E-03,296.31,254.6,295.0
139.91646575927734,+1.35207300E+0,+0.637808E-03,296.3,254.62,295.0
140.55662989616394,+1.35210800E+0,+0.637816E-03,296.28,254.65,295.0
141.19612836837769,+1.35214300E+0,+0.637843E-03,296.26,254.67,295.0
141.83562350273132,+1.35217800E+0,+0.637861E-03,296.24,254.69,295.0
142.48380756378174,+1.35221600E+0,+0.637877E-03,296.22,254.71,295.0
143.11674070358276,+1.35224500E+0,+0.637893E-03,296.19,254.73,295.0
143.75634717941284,+1.35228000E+0,+0.637900E-03,296.17,254.76,295.0
144.39649057388306,+1.35231700E+0,+0.637926E-03,296.14,254.78,295.0
145.03497219085693,+1.35234900E+0,+0.637942E-03,296.11,254.8,295.0
145.68385767936707,+1.35239000E+0,+0.637957E-03,296.09,254.82,295.0
146.316251039505,+1.35241600E+0,+0.637973E-03,296.06,254.83,295.0
146.95577120780945,+1.35245400E+0,+0.637979E-03,296.03,254.86,295.0
147.59560990333557,+1.35248300E+0,+0.638004E-03,296.0,254.87,295.0
148.23602056503296,+1.35253300E+0,+0.638026E-03,295.95,254.9,295.0
149.11547470092773,+1.35258200E+0,+0.638051E-03,295.9,254.93,295.0
150.1358678340912,+1.35261700E+0,+0.638066E-03,295.87,254.95,295.0
150.7829988002777,+1.35265500E+0,+0.638081E-03,295.84,254.97,295.0
151.41558933258057,+1.35266900E+0,+0.638095E-03,295.8,254.98,295.0
152.056143283844,+1.35270700E+0,+0.638120E-03,295.77,255.0,295.0
152.69620513916016,+1.35274200E+0,+0.638126E-03,295.74,255.02,295.0
153.31568837165833,+1.35277100E+0,+0.638140E-03,295.71,255.04,295.0
153.95625185966492,+1.35280300E+0,+0.638154E-03,295.67,255.05,295.0
154.58352255821228,+1.35283500E+0,+0.638169E-03,295.64,255.07,295.0
155.21590304374695,+1.35286400E+0,+0.638183E-03,295.61,255.09,295.0
155.8559226989746,+1.35293100E+0,+0.638216E-03,295.53,255.13,295.0
157.28433632850647,+1.35296300E+0,+0.638239E-03,295.51,255.14,295.0
157.89505887031555,+1.35299200E+0,+0.638243E-03,295.48,255.16,295.0
158.53521847724915,+1.35301500E+0,+0.638257E-03,295.45,255.17,295.0
159.18384051322937,+1.35305300E+0,+0.638271E-03,295.42,255.19,295.0
159.8152141571045,+1.35307900E+0,+0.638285E-03,295.4,255.21,295.0
160.45526099205017,+1.35311400E+0,+0.638308E-03,295.37,255.22,295.0
161.094899892807,+1.35313500E+0,+0.638313E-03,295.35,255.24,295.0
161.73488235473633,+1.35316100E+0,+0.638326E-03,295.32,255.26,295.0
162.3821337223053,+1.35319300E+0,+0.638337E-03,295.3,255.27,295.0
163.01384949684143,+1.35322200E+0,+0.638353E-03,295.28,255.29,295.0
163.6548981666565,+1.35325700E+0,+0.638370E-03,295.26,255.31,295.0
164.29383492469788,+1.35327700E+0,+0.638381E-03,295.24,255.32,295.0
164.934805393219,+1.35331200E+0,+0.638396E-03,295.23,255.34,295.0
165.58160018920898,+1.35333500E+0,+0.638398E-03,295.21,255.36,295.0
166.21373653411865,+1.35337000E+0,+0.638419E-03,295.2,255.38,295.0
166.85396695137024,+1.35339600E+0,+0.638444E-03,295.18,255.39,295.0
167.51366758346558,+1.35342200E+0,+0.638447E-03,295.17,255.41,295.0
168.15310382843018,+1.35345400E+0,+0.638460E-03,295.16,255.43,295.0
168.7938370704651,+1.35347800E+0,+0.638472E-03,295.16,255.45,295.0
169.43282270431519,+1.35351000E+0,+0.638486E-03,295.15,255.47,295.0
170.08087038993835,+1.35353600E+0,+0.638509E-03,295.15,255.49,295.0
170.71271967887878,+1.35356200E+0,+0.638512E-03,295.14,255.5,295.0
171.35282278060913,+1.35359400E+0,+0.638525E-03,295.14,255.52,295.0
171.99152994155884,+1.35361700E+0,+0.638539E-03,295.14,255.54,295.0
172.63160705566406,+1.35364900E+0,+0.638551E-03,295.14,255.56,295.0
173.28039956092834,+1.35367000E+0,+0.638574E-03,295.14,255.58,295.0
173.91138315200806,+1.35369300E+0,+0.638576E-03,295.15,255.6,295.0
174.55223035812378,+1.35373100E+0,+0.638589E-03,295.15,255.62,295.0
175.19185733795166,+1.35375100E+0,+0.638601E-03,295.16,255.64,295.0
175.83156490325928,+1.35377400E+0,+0.638613E-03,295.17,255.66,295.0
176.47888493537903,+1.35380900E+0,+0.638637E-03,295.18,255.68,295.0
177.11097121238708,+1.35383000E+0,+0.638640E-03,295.19,255.7,295.0
177.7510325908661,+1.35385900E+0,+0.638651E-03,295.2,255.72,295.0
178.39101386070251,+1.35388500E+0,+0.638655E-03,295.21,255.74,295.0
179.01055264472961,+1.35391100E+0,+0.638678E-03,295.23,255.76,295.0
179.6304144859314,+1.35392600E+0,+0.638689E-03,295.24,255.78,295.0
180.2498745918274,+1.35395700E+0,+0.638699E-03,295.25,255.8,295.0
180.8788993358612,+1.35398900E+0,+0.638721E-03,295.27,255.83,295.0
181.51008653640747,+1.35400700E+0,+0.638723E-03,295.29,255.85,295.0
182.12983655929565,+1.35403900E+0,+0.638735E-03,295.31,255.87,295.0
