time [s],voltage [V],current [A],temperature_A [K],temperature_B [K],setpoint [K]
0.0,+2.38621900E+00,+1.125554E-03,210.0,205.0,210.0
0.628899097442627,+2.38613500E+00,+1.125503E-03,210.0,205.0,210.0
1.2701795101165771,+2.38605600E+00,+1.125538E-03,210.0,205.0,210.0
1.9079113006591797,+2.38602100E+00,+1.125458E-03,210.0,205.0,210.0
2.549255132675171,+2.38595800E+00,+1.125439E-03,210.0,205.0,209.99
3.187758207321167,+2.38590500E+00,+1.125428E-03,210.0,205.0,209.99
3.82670521736145,+2.38586200E+00,+1.125386E-03,210.0,205.0,209.99
4.467222452163696,+2.38581800E+00,+1.125379E-03,210.0,205.0,209.99
5.106957197189331,+2.38576800E+00,+1.125355E-03,210.0,205.0,209.99
5.726550340652466,+2.38572500E+00,+1.125350E-03,210.0,205.0,209.99
6.366807222366333,+2.38569300E+00,+1.125322E-03,210.0,205.0,209.99
6.986805438995361,+2.38564900E+00,+1.125312E-03,210.0,205.0,209.99
7.605705499649048,+2.38562000E+00,+1.125286E-03,210.0,205.0,209.99
8.225792646408081,+2.38558200E+00,+1.125281E-03,210.0,205.0,209.99
8.849892854690552,+2.38555900E+00,+1.125267E-03,210.0,205.0,209.98
9.485799074172974,+2.38552400E+00,+1.125240E-03,210.0,205.0,209.98
10.104679584503174,+2.38549200E+00,+1.125237E-03,210.0,205.0,209.98
10.725962162017822,+2.38546300E+00,+1.125221E-03,210.0,205.0,209.98
11.34998345375061,+2.38544000E+00,+1.125210E-03,210.0,205.0,209.98
11.984778642654419,+2.38540500E+00,+1.125200E-03,210.0,205.0,209.98
12.605735540390015,+2.38538200E+00,+1.125180E-03,210.0,205.0,209.98
13.224538087844849,+2.38535000E+00,+1.125171E-03,210.0,205.0,209.98
13.853290557861328,+2.38532900E+00,+1.125153E-03,210.0,205.0,209.98
14.48616075515747,+2.38530900E+00,+1.125145E-03,210.0,205.0,209.97
15.124884605407715,+2.38527100E+00,+1.125133E-03,210.0,205.0,209.97
15.749886512756348,+2.38525100E+00,+1.125122E-03,210.0,205.0,209.97
16.391338109970093,+2.38523100E+00,+1.125117E-03,210.0,205.0,209.97
17.023797750473022,+2.38520100E+00,+1.125098E-03,210.0,205.0,209.97
17.64920973777771,+2.38517500E+00,+1.125089E-03,210.0,205.0,209.97
18.28752088546753,+2.38515500E+00,+1.125076E-03,210.0,205.0,209.97
18.923401355743408,+2.38512000E+00,+1.125064E-03,210.0,205.0,209.97
19.549034357070923,+2.38510300E+00,+1.125047E-03,210.0,205.0,209.97
20.184718370437622,+2.38507300E+00,+1.125043E-03,209.99,205.0,209.97
20.803664922714233,+2.38505300E+00,+1.125041E-03,209.99,205.0,209.96
21.42359161376953,+2.38503300E+00,+1.125025E-03,209.99,205.0,209.96
22.049710035324097,+2.38500700E+00,+1.125003E-03,209.99,205.0,209.96
22.684295892715454,+2.38498000E+00,+1.125000E-03,209.99,205.0,209.96
23.30578923225403,+2.38495100E+00,+1.124993E-03,209.99,205.0,209.96
23.9238018989563,+2.38493400E+00,+1.124970E-03,209.99,205.0,209.96
24.54926347732544,+2.38491100E+00,+1.124968E-03,209.99,204.99,209.96
25.18427586555481,+2.38488400E+00,+1.124959E-03,209.99,204.99,209.96
25.8036470413208,+2.38486100E+00,+1.124938E-03,209.99,204.99,209.96
26.42387580871582,+2.38484400E+00,+1.124925E-03,209.99,204.99,209.95
27.05031681060791,+2.38481200E+00,+1.124923E-03,209.99,204.99,209.95
27.684073448181152,+2.38479100E+00,+1.124914E-03,209.99,204.99,209.95
28.30502414703369,+2.38477700E+00,+1.124905E-03,209.99,204.99,209.95
28.92379140853882,+2.38474500E+00,+1.124884E-03,209.98,204.99,209.95
29.549732208251953,+2.38472700E+00,+1.124881E-03,209.98,204.99,209.95
30.183654069900513,+2.38470700E+00,+1.124870E-03,209.98,204.99,209.95
30.804378747940063,+2.38469000E+00,+1.124860E-03,209.98,204.99,209.95
31.4237699508667,+2.38466100E+00,+1.124840E-03,209.98,204.99,209.95
32.05056619644165,+2.38463700E+00,+1.124831E-03,209.98,204.99,209.95
32.68404245376587,+2.38460800E+00,+1.124825E-03,209.98,204.99,209.94
33.302825927734375,+2.38458800E+00,+1.124818E-03,209.98,204.99,209.94
33.92321228981018,+2.38456700E+00,+1.124809E-03,209.98,204.99,209.94
34.549349546432495,+2.38454100E+00,+1.124805E-03,209.97,204.99,209.94
35.18325710296631,+2.38453000E+00,+1.124796E-03,209.97,204.99,209.94
35.80341649055481,+2.38450600E+00,+1.124787E-03,209.97,204.99,209.94
36.42279243469238,+2.38448300E+00,+1.124777E-03,209.97,204.99,209.94
37.051878929138184,+2.38447700E+00,+1.124757E-03,209.97,204.99,209.94
37.70241165161133,+2.38443700E+00,+1.124758E-03,209.97,204.99,209.94
38.32334017753601,+2.38441600E+00,+1.124739E-03,209.97,204.99,209.93
38.951905250549316,+2.38440500E+00,+1.124738E-03,209.96,204.99,209.93
39.583247423172,+2.38437800E+00,+1.124713E-03,209.96,204.99,209.93
40.202884912490845,+2.38435500E+00,+1.124712E-03,209.96,204.99,209.93
40.82243084907532,+2.38434100E+00,+1.124703E-03,209.96,204.99,209.93
41.45293402671814,+2.38432000E+00,+1.124677E-03,209.96,204.99,209.93
42.08239197731018,+2.38429100E+00,+1.124682E-03,209.96,204.99,209.93
42.70250225067139,+2.38426800E+00,+1.124671E-03,209.96,204.99,209.93
43.32167649269104,+2.38425300E+00,+1.124661E-03,209.95,204.99,209.93
43.9495210647583,+2.38423300E+00,+1.124661E-03,209.95,204.99,209.93
44.58175802230835,+2.38421000E+00,+1.124640E-03,209.95,204.99,209.92
45.20149874687195,+2.38418900E+00,+1.124632E-03,209.95,204.99,209.92
45.82143449783325,+2.38416300E+00,+1.124650E-03,209.95,204.99,209.92
46.45056676864624,+2.38415700E+00,+1.124607E-03,209.95,204.99,209.92
47.08070707321167,+2.38412800E+00,+1.124612E-03,209.94,204.99,209.92
47.70162892341614,+2.38410800E+00,+1.124602E-03,209.94,204.99,209.92
48.320109367370605,+2.38408500E+00,+1.124591E-03,209.94,204.99,209.92
48.94955325126648,+2.38406700E+00,+1.124584E-03,209.94,204.99,209.92
49.58200025558472,+2.38403500E+00,+1.124566E-03,209.94,204.99,209.92
50.19996118545532,+2.38401500E+00,+1.124561E-03,209.94,204.99,209.92
50.820550203323364,+2.38399800E+00,+1.124549E-03,209.93,204.99,209.91
51.44894003868103,+2.38398000E+00,+1.124531E-03,209.93,204.99,209.91
52.07998967170715,+2.38396000E+00,+1.124532E-03,209.93,204.98,209.91
52.69958567619324,+2.38393400E+00,+1.124521E-03,209.93,204.98,209.91
53.32054042816162,+2.38391000E+00,+1.124517E-03,209.93,204.98,209.91
53.9480185508728,+2.38390400E+00,+1.124512E-03,209.93,204.98,209.91
54.57996416091919,+2.38387200E+00,+1.124497E-03,209.92,204.98,209.91
55.19861721992493,+2.38385500E+00,+1.124482E-03,209.92,204.98,209.91
55.819793701171875,+2.38382900E+00,+1.124470E-03,209.92,204.98,209.91
56.448827505111694,+2.38381400E+00,+1.124450E-03,209.92,204.98,209.9
57.07859516143799,+2.38378800E+00,+1.124458E-03,209.92,204.98,209.9
57.69993805885315,+2.38376800E+00,+1.124391E-03,209.92,204.98,209.9
58.5113410949707,+2.38382000E+00,+1.124463E-03,209.91,204.98,209.9
60.09891223907471,+2.38378800E+00,+1.124456E-03,209.91,204.98,209.9
61.119691610336304,+2.38376800E+00,+1.124455E-03,209.91,204.98,209.9
62.147345304489136,+2.38375300E+00,+1.124436E-03,209.9,204.98,209.89
63.16357612609863,+2.38372400E+00,+1.124432E-03,209.9,204.98,209.89
64.17952036857605,+2.38369200E+00,+1.124403E-03,209.9,204.98,209.89
65.20156502723694,+2.38366600E+00,+1.124387E-03,209.9,204.98,209.89
66.24664759635925,+2.38363700E+00,+1.124357E-03,209.9,204.98,209.89
67.24883270263672,+2.38357000E+00,+1.124328E-03,209.89,204.98,209.89
67.8834707736969,+2.38352100E+00,+1.124305E-03,209.89,204.98,209.89
68.49911570549011,+2.38348000E+00,+1.124305E-03,209.89,204.98,209.88
69.12113308906555,+2.38344800E+00,+1.124277E-03,209.89,204.98,209.88
69.749338388443,+2.38341900E+00,+1.124269E-03,209.89,204.98,209.88
70.38272762298584,+2.38337800E+00,+1.124258E-03,209.89,204.98,209.88
71.00183987617493,+2.38334900E+00,+1.124232E-03,209.89,204.98,209.88
71.621746301651,+2.38331700E+00,+1.124217E-03,209.89,204.98,209.88
72.25141787528992,+2.38329400E+00,+1.124193E-03,209.88,204.98,209.88
72.8829185962677,+2.38325300E+00,+1.124179E-03,209.88,204.98,209.88
73.502854347229,+2.38322100E+00,+1.124168E-03,209.88,204.98,209.88
74.12245774269104,+2.38319500E+00,+1.124148E-03,209.88,204.98,209.88
74.75014352798462,+2.38317500E+00,+1.124151E-03,209.88,204.97,209.87
75.38196849822998,+2.38314300E+00,+1.124128E-03,209.88,204.97,209.87
76.00380206108093,+2.38310500E+00,+1.124121E-03,209.88,204.97,209.87
76.62367725372314,+2.38308200E+00,+1.124099E-03,209.88,204.97,209.87
77.31704950332642,+2.38307300E+00,+1.124095E-03,209.88,204.97,209.87
77.94986748695374,+2.38304400E+00,+1.124080E-03,209.87,204.97,209.87
78.58443832397461,+2.38299400E+00,+1.124062E-03,209.87,204.97,209.87
79.20451784133911,+2.38298000E+00,+1.124045E-03,209.87,204.97,209.87
79.82457423210144,+2.38294800E+00,+1.124029E-03,209.87,204.97,209.87
80.45080471038818,+2.38292200E+00,+1.124009E-03,209.87,204.97,209.86
81.08563923835754,+2.38289200E+00,+1.124004E-03,209.87,204.97,209.86
81.70462489128113,+2.38286600E+00,+1.123993E-03,209.87,204.97,209.86
82.32572388648987,+2.38283700E+00,+1.123980E-03,209.87,204.97,209.86
82.95029354095459,+2.38282300E+00,+1.123963E-03,209.87,204.97,209.86
83.60547542572021,+2.38279100E+00,+1.123950E-03,209.87,204.97,209.86
84.25246739387512,+2.38276200E+00,+1.123928E-03,209.87,204.97,209.86
84.88812685012817,+2.38273500E+00,+1.123918E-03,209.86,204.97,209.86
85.52676701545715,+2.38270900E+00,+1.123924E-03,209.86,204.97,209.86
86.16580200195312,+2.38268600E+00,+1.123902E-03,209.86,204.97,209.86
86.80823421478271,+2.38265700E+00,+1.123877E-03,209.86,204.97,209.85
87.45267748832703,+2.38263400E+00,+1.123859E-03,209.86,204.97,209.85
88.08795094490051,+2.38259900E+00,+1.123848E-03,209.86,204.97,209.85
88.72830748558044,+2.38256700E+00,+1.123841E-03,209.86,204.97,209.85
89.36767363548279,+2.38253500E+00,+1.123823E-03,209.86,204.97,209.85
90.00875520706177,+2.38252000E+00,+1.123809E-03,209.86,204.97,209.85
90.65300130844116,+2.38249100E+00,+1.123788E-03,209.86,204.97,209.85
91.28983616828918,+2.38245600E+00,+1.123783E-03,209.86,204.97,209.85
91.92938756942749,+2.38242700E+00,+1.123765E-03,209.86,204.97,209.85
92.56930685043335,+2.38239800E+00,+1.123749E-03,209.86,204.97,209.84
93.21054649353027,+2.38237800E+00,+1.123735E-03,209.86,204.97,209.84
93.85278058052063,+2.38234300E+00,+1.123723E-03,209.85,204.97,209.84
94.49054670333862,+2.38231400E+00,+1.123714E-03,209.85,204.97,209.84
95.12964749336243,+2.38229100E+00,+1.123776E-03,209.85,204.97,209.84
95.75029420852661,+2.38234000E+00,+1.123716E-03,209.85,204.96,209.84
96.84321451187134,+2.38233100E+00,+1.123785E-03,209.85,204.96,209.84
97.83169221878052,+2.38233400E+00,+1.123719E-03,209.85,204.96,209.84
98.87213182449341,+2.38225000E+00,+1.123689E-03,209.85,204.96,209.83
99.49315595626831,+2.38222700E+00,+1.123691E-03,209.85,204.96,209.83
100.15178561210632,+2.38219200E+00,+1.123656E-03,209.85,204.96,209.83
100.79307961463928,+2.38214500E+00,+1.123699E-03,209.85,204.96,209.83
101.41263127326965,+2.38214500E+00,+1.123702E-03,209.85,204.96,209.83
102.04244256019592,+2.38212800E+00,+1.123686E-03,209.85,204.96,209.83
102.65391898155212,+2.38211600E+00,+1.123676E-03,209.84,204.96,209.83
103.27413988113403,+2.38209300E+00,+1.123651E-03,209.84,204.96,209.83
103.89395332336426,+2.38206400E+00,+1.123652E-03,209.84,204.96,209.83
104.51469016075134,+2.38204600E+00,+1.123633E-03,209.84,204.96,209.82
105.14270210266113,+2.38202900E+00,+1.123635E-03,209.84,204.96,209.82
105.75570034980774,+2.38200600E+00,+1.123622E-03,209.84,204.96,209.82
106.3769359588623,+2.38198500E+00,+1.123626E-03,209.84,204.96,209.82
107.0507299900055,+2.38196500E+00,+1.123599E-03,209.84,204.96,209.82
107.67636942863464,+2.38194400E+00,+1.123573E-03,209.84,204.96,209.82
108.295893907547,+2.38191300E+00,+1.123583E-03,209.84,204.96,209.82
108.92253303527832,+2.38189500E+00,+1.123561E-03,209.84,204.96,209.82
109.54617619514465,+2.38186900E+00,+1.123541E-03,209.84,204.96,209.82
110.1808135509491,+2.38183400E+00,+1.123544E-03,209.83,204.96,209.82
110.79646158218384,+2.38181400E+00,+1.123516E-03,209.83,204.96,209.81
111.41692733764648,+2.38178700E+00,+1.123510E-03,209.83,204.96,209.81
112.04731726646423,+2.38176700E+00,+1.123492E-03,209.83,204.96,209.81
112.67788672447205,+2.38173500E+00,+1.123471E-03,209.83,204.96,209.81
113.3046019077301,+2.38174400E+00,+1.123476E-03,209.83,204.96,209.81
114.16408562660217,+2.38174100E+00,+1.123470E-03,209.83,204.96,209.81
115.17960000038147,+2.38172100E+00,+1.123468E-03,209.83,204.96,209.81
116.20039582252502,+2.38169400E+00,+1.123448E-03,209.83,204.96,209.8
117.2210910320282,+2.38162800E+00,+1.123432E-03,209.82,204.96,209.8
117.84994864463806,+2.38158700E+00,+1.123400E-03,209.82,204.96,209.8
118.46153450012207,+2.38155500E+00,+1.123369E-03,209.82,204.95,209.8
119.0826244354248,+2.38150800E+00,+1.123348E-03,209.82,204.95,209.8
119.70162463188171,+2.38147300E+00,+1.123329E-03,209.82,204.95,209.8
120.32261109352112,+2.38143300E+00,+1.123323E-03,209.82,204.95,209.8
120.95316791534424,+2.38140900E+00,+1.123316E-03,209.82,204.95,209.8
121.58578205108643,+2.38138300E+00,+1.123287E-03,209.82,204.95,209.8
122.22305107116699,+2.38134300E+00,+1.123282E-03,209.82,204.95,209.8
122.85446190834045,+2.38132200E+00,+1.123260E-03,209.81,204.95,209.79
123.4868266582489,+2.38128700E+00,+1.123239E-03,209.81,204.95,209.79
124.12360453605652,+2.38125200E+00,+1.123225E-03,209.81,204.95,209.79
124.75168514251709,+2.38122900E+00,+1.123210E-03,209.81,204.95,209.79
125.3848307132721,+2.38118800E+00,+1.123235E-03,209.81,204.95,209.79
126.00525426864624,+2.38117700E+00,+1.123188E-03,209.81,204.95,209.79
126.6547155380249,+2.38114500E+00,+1.123172E-03,209.81,204.95,209.79
127.2851505279541,+2.38111000E+00,+1.123151E-03,209.81,204.95,209.79
127.92547273635864,+2.38108400E+00,+1.123137E-03,209.81,204.95,209.79
128.56680417060852,+2.38104900E+00,+1.123135E-03,209.81,204.95,209.78
129.20652556419373,+2.38102300E+00,+1.123106E-03,209.8,204.95,209.78
129.85265636444092,+2.38099400E+00,+1.123100E-03,209.8,204.95,209.78
130.49129271507263,+2.38096200E+00,+1.123073E-03,209.8,204.95,209.78
131.1321246623993,+2.38093000E+00,+1.123066E-03,209.8,204.95,209.78
131.76805925369263,+2.38090300E+00,+1.123061E-03,209.8,204.95,209.78
132.40719628334045,+2.38087400E+00,+1.123031E-03,209.8,204.95,209.78
133.05327439308167,+2.38084200E+00,+1.123019E-03,209.8,204.95,209.78
133.6886236667633,+2.38081000E+00,+1.122997E-03,209.8,204.95,209.78
134.32914090156555,+2.38078700E+00,+1.122989E-03,209.79,204.95,209.77
134.9688377380371,+2.38075500E+00,+1.122971E-03,209.79,204.95,209.77
135.6288890838623,+2.38072300E+00,+1.122962E-03,209.79,204.95,209.77
136.26913905143738,+2.38069100E+00,+1.122936E-03,209.79,204.95,209.77
136.90903425216675,+2.38066500E+00,+1.122929E-03,209.79,204.95,209.77
137.55215048789978,+2.38063300E+00,+1.122914E-03,209.79,204.95,209.77
138.18996238708496,+2.38060100E+00,+1.122985E-03,209.79,204.95,209.77
138.81171298027039,+2.38061300E+00,+1.122978E-03,209.79,204.94,209.77
139.44434714317322,+2.38060700E+00,+1.122902E-03,209.78,204.94,209.77
140.07413697242737,+2.38056300E+00,+1.122947E-03,209.78,204.94,209.77
140.70946264266968,+2.38056000E+00,+1.122947E-03,209.78,204.94,209.76
141.33184361457825,+2.38054000E+00,+1.122944E-03,209.78,204.94,209.76
141.95265293121338,+2.38053700E+00,+1.122930E-03,209.78,204.94,209.76
142.57049989700317,+2.38051100E+00,+1.122931E-03,209.78,204.94,209.76
143.19262528419495,+2.38049900E+00,+1.122915E-03,209.78,204.94,209.76
143.81282091140747,+2.38047300E+00,+1.122903E-03,209.78,204.94,209.76
144.43309926986694,+2.38045300E+00,+1.122902E-03,209.77,204.94,209.76
145.0548141002655,+2.38043200E+00,+1.122878E-03,209.77,204.94,209.76
145.67386889457703,+2.38040600E+00,+1.122873E-03,209.77,204.94,209.76
146.2939248085022,+2.38039200E+00,+1.122847E-03,209.77,204.94,209.76
146.91455054283142,+2.38036300E+00,+1.122844E-03,209.77,204.94,209.75
147.5429332256317,+2.38034200E+00,+1.122826E-03,209.77,204.94,209.75
148.15497183799744,+2.38031300E+00,+1.122828E-03,209.77,204.94,209.75
148.77419137954712,+2.38028100E+00,+1.122804E-03,209.77,204.94,209.75
149.39496731758118,+2.38026700E+00,+1.122799E-03,209.76,204.94,209.75
150.01578831672668,+2.38023800E+00,+1.122770E-03,209.76,204.94,209.75
150.64571499824524,+2.38021400E+00,+1.122766E-03,209.76,204.94,209.75
151.27501511573792,+2.38019100E+00,+1.122754E-03,209.76,204.94,209.75
151.89652395248413,+2.38016200E+00,+1.122754E-03,209.76,204.94,209.75
152.51698923110962,+2.38014200E+00,+1.122725E-03,209.76,204.94,209.74
153.1441934108734,+2.38011000E+00,+1.122710E-03,209.76,204.94,209.74
153.75669503211975,+2.38008600E+00,+1.122695E-03,209.76,204.94,209.74
154.37741208076477,+2.38004600E+00,+1.122691E-03,209.75,204.94,209.74
154.99804282188416,+2.38002500E+00,+1.122681E-03,209.75,204.94,209.74
155.61828780174255,+2.37999900E+00,+1.122649E-03,209.75,204.94,209.74
156.24899315834045,+2.37997000E+00,+1.122645E-03,209.75,204.94,209.74
156.85807251930237,+2.37994400E+00,+1.122623E-03,209.75,204.94,209.74
157.47997975349426,+2.37991800E+00,+1.122601E-03,209.75,204.93,209.74
158.09871459007263,+2.37988600E+00,+1.122590E-03,209.75,204.93,209.74
158.72054600715637,+2.37985400E+00,+1.122592E-03,209.75,204.93,209.73
159.34887409210205,+2.37983600E+00,+1.122569E-03,209.75,204.93,209.73
159.9795355796814,+2.37979800E+00,+1.122556E-03,209.74,204.93,209.73
160.60046863555908,+2.37976600E+00,+1.122549E-03,209.74,204.93,209.73
161.2200961112976,+2.37973700E+00,+1.122521E-03,209.74,204.93,209.73
161.8495614528656,+2.37971400E+00,+1.122507E-03,209.74,204.93,209.73
162.48216581344604,+2.37967900E+00,+1.122491E-03,209.74,204.93,209.73
163.1026270389557,+2.37965300E+00,+1.122458E-03,209.74,204.93,209.73
163.722829580307,+2.37962100E+00,+1.122463E-03,209.74,204.93,209.73
164.3508596420288,+2.37959200E+00,+1.122444E-03,209.74,204.93,209.72
164.9838798046112,+2.37955700E+00,+1.122428E-03,209.74,204.93,209.72
165.60421705245972,+2.37954000E+00,+1.122409E-03,209.74,204.93,209.72
166.25256896018982,+2.37950500E+00,+1.122396E-03,209.73,204.93,209.72
166.88445520401,+2.37947300E+00,+1.122374E-03,209.73,204.93,209.72
167.5246250629425,+2.37943800E+00,+1.122361E-03,209.73,204.93,209.72
168.16457104682922,+2.37941200E+00,+1.122345E-03,209.73,204.93,209.72
168.80572938919067,+2.37937700E+00,+1.122323E-03,209.73,204.93,209.72
169.45292806625366,+2.37934500E+00,+1.122314E-03,209.73,204.93,209.72
170.08841061592102,+2.37931000E+00,+1.122287E-03,209.73,204.93,209.72
170.72686195373535,+2.37927800E+00,+1.122289E-03,209.73,204.93,209.71
171.36767268180847,+2.37924900E+00,+1.122268E-03,209.73,204.93,209.71
172.01045656204224,+2.37922000E+00,+1.122259E-03,209.72,204.93,209.71
172.65884280204773,+2.37919100E+00,+1.122239E-03,209.72,204.93,209.71
173.2881100177765,+2.37915600E+00,+1.122209E-03,209.72,204.93,209.71
173.9280138015747,+2.37920800E+00,+1.122242E-03,209.72,204.93,209.71
175.36876368522644,+2.37918200E+00,+1.122224E-03,209.72,204.92,209.71
176.3972852230072,+2.37915000E+00,+1.122196E-03,209.72,204.92,209.7
177.40962433815002,+2.37911200E+00,+1.122195E-03,209.72,204.92,209.7
178.4309298992157,+2.37908000E+00,+1.122252E-03,209.71,204.92,209.7
179.43096351623535,+2.37903900E+00,+1.122158E-03,209.71,204.92,209.7
180.07129287719727,+2.37897000E+00,+1.122198E-03,209.71,204.92,209.7
180.691823720932,+2.37895800E+00,+1.122181E-03,209.71,204.92,209.7
181.31296491622925,+2.37893200E+00,+1.122165E-03,209.71,204.92,209.7
181.93217968940735,+2.37890600E+00,+1.122157E-03,209.71,204.92,209.7
182.5529396533966,+2.37887700E+00,+1.122142E-03,209.71,204.92,209.69
183.17256689071655,+2.37885300E+00,+1.122130E-03,209.71,204.92,209.69
183.79379963874817,+2.37882400E+00,+1.122110E-03,209.71,204.92,209.69
184.4137020111084,+2.37879800E+00,+1.122110E-03,209.71,204.92,209.69
